Raw Data
Time Displacement Force
(s) (mm) (N)
0.0000 0.0000 -0.0110
0.0200 0.0001 -0.0141
0.0400 0.0014 0.0468
0.0600 0.0067 0.0525
0.0800 0.0154 -0.0322
0.1000 0.0245 -0.0152
0.1200 0.0337 0.0185
0.1400 0.0437 -0.0200
0.1600 0.0545 -0.0028
0.1800 0.0653 -0.0038
0.2000 0.0759 -0.0359
0.2200 0.0861 -0.0030
0.2400 0.0961 0.0037
0.2600 0.1061 -0.0300
0.2800 0.1161 0.0005
0.3000 0.1262 0.0009
0.3200 0.1362 -0.0321
0.3400 0.1462 0.0065
0.3600 0.1562 -0.0036
0.3800 0.1662 -0.0262
0.4000 0.1763 0.0021
0.4200 0.1863 -0.0039
0.4400 0.1962 -0.0263
0.4600 0.2062 0.0037
0.4800 0.2162 -0.0038
0.5000 0.2262 -0.0179
0.5200 0.2363 -0.0008
0.5400 0.2463 -0.0055
0.5600 0.2562 -0.0199
0.5800 0.2662 0.0046
0.6000 0.2762 -0.0020
0.6200 0.2862 -0.0148
0.6400 0.2962 -0.0027
0.6600 0.3062 -0.0007
0.6800 0.3162 -0.0117
0.7000 0.3261 0.0010
0.7200 0.3361 0.0012
0.7400 0.3462 -0.0153
0.7600 0.3562 0.0009
0.7800 0.3662 0.0012
0.8000 0.3762 -0.0154
0.8200 0.3862 0.0073
0.8400 0.3962 0.0017
0.8600 0.4062 -0.0182
0.8800 0.4163 0.0080
0.9000 0.4263 -0.0001
0.9200 0.4363 -0.0158
0.9400 0.4462 0.0074
0.9600 0.4562 0.0051
0.9800 0.4662 -0.0133
1.0000 0.4763 0.0082
1.0200 0.4863 -0.0008
1.0400 0.4962 -0.0139
1.0600 0.5062 0.0093
1.0800 0.5162 -0.0002
1.1000 0.5262 -0.0115
1.1200 0.5362 0.0122
1.1400 0.5462 -0.0021
1.1600 0.5562 -0.0083
1.1800 0.5661 0.0078
1.2000 0.5761 0.0020
1.2200 0.5862 -0.0084
1.2400 0.5962 0.0069
1.2600 0.6062 -0.0033
1.2800 0.6162 -0.0102
1.3000 0.6261 0.0094
1.3200 0.6361 0.0042
1.3400 0.6462 -0.0081
1.3600 0.6562 0.0097
1.3800 0.6663 -0.0007
1.4000 0.6763 -0.0105
1.4200 0.6862 0.0099
1.4400 0.6962 -0.0017
1.4600 0.7062 -0.0104
1.4800 0.7163 0.0085
1.5000 0.7263 -0.0036
1.5200 0.7363 -0.0098
1.5400 0.7462 0.0111
1.5600 0.7562 -0.0020
1.5800 0.7662 0.0006
1.6000 0.7762 0.0096
1.6200 0.7862 -0.0067
1.6400 0.7962 -0.0030
1.6600 0.8062 0.0087
1.6800 0.8161 -0.0034
1.7000 0.8261 -0.0076
1.7200 0.8362 0.0054
1.7400 0.8462 -0.0043
1.7600 0.8562 -0.0063
1.7800 0.8662 0.0057
1.8000 0.8762 -0.0107
1.8200 0.8863 -0.0003
1.8400 0.8963 -0.0024
1.8600 0.9063 -0.0071
1.8800 0.9163 0.0012
1.9000 0.9262 0.0006
1.9200 0.9362 -0.0061
1.9400 0.9462 0.0018
1.9600 0.9563 0.0009
1.9800 0.9663 -0.0029
2.0000 0.9763 0.0014
2.0200 0.9862 0.0018
2.0400 0.9962 0.0011
2.0600 1.0062 0.0025
2.0800 1.0162 0.0024
2.1000 1.0262 0.0038
2.1200 1.0362 0.0061
2.1400 1.0461 0.0028
2.1600 1.0561 0.0059
2.1800 1.0661 0.0121
2.2000 1.0762 0.0015
2.2200 1.0862 0.0072
2.2400 1.0962 0.0134
2.2600 1.1062 -0.0029
2.2800 1.1162 0.0096
2.3000 1.1262 0.0158
2.3200 1.1363 -0.0008
2.3400 1.1463 0.0113
2.3600 1.1563 0.0108
2.3800 1.1663 0.0016
2.4000 1.1762 0.0150
2.4200 1.1863 0.0075
2.4400 1.1963 0.0047
2.4600 1.2063 0.0104
2.4800 1.2163 0.0056
2.5000 1.2262 -0.0011
2.5200 1.2362 0.0106
2.5400 1.2462 0.0080
2.5600 1.2562 0.0039
2.5800 1.2662 0.0110
2.6000 1.2762 0.0098
2.6200 1.2861 0.0103
2.6400 1.2961 0.0101
2.6600 1.3062 0.0131
2.6800 1.3162 0.0135
2.7000 1.3263 0.0097
2.7200 1.3363 0.0170
2.7400 1.3462 0.0137
2.7600 1.3562 0.0170
2.7800 1.3662 0.0250
2.8000 1.3763 0.0218
2.8200 1.3863 0.0178
2.8400 1.3963 0.0289
2.8600 1.4062 0.0256
2.8800 1.4162 0.0209
2.9000 1.4262 0.0330
2.9200 1.4362 0.0262
2.9400 1.4463 0.0301
2.9600 1.4563 0.0378
2.9800 1.4663 0.0323
3.0000 1.4762 0.0342
3.0200 1.4862 0.0451
3.0400 1.4963 0.0334
3.0600 1.5063 0.0394
3.0800 1.5163 0.0458
3.1000 1.5262 0.0418
3.1200 1.5362 0.0447
3.1400 1.5462 0.0514
3.1600 1.5562 0.0450
3.1800 1.5662 0.0439
3.2000 1.5762 0.0525
3.2200 1.5862 0.0467
3.2400 1.5962 0.0481
3.2600 1.6062 0.0621
3.2800 1.6162 0.0516
3.3000 1.6262 0.0494
3.3200 1.6362 0.0663
3.3400 1.6462 0.0554
3.3600 1.6562 0.0513
3.3800 1.6662 0.0710
3.4000 1.6763 0.0614
3.4200 1.6863 0.0552
3.4400 1.6963 0.0759
3.4600 1.7062 0.0630
3.4800 1.7162 0.0634
3.5000 1.7262 0.0802
3.5200 1.7363 0.0606
3.5400 1.7463 0.0644
3.5600 1.7563 0.0801
3.5800 1.7662 0.0658
3.6000 1.7762 0.0694
3.6200 1.7862 0.0861
3.6400 1.7962 0.0702
3.6600 1.8062 0.0740
3.6800 1.8162 0.0898
3.7000 1.8262 0.0688
3.7200 1.8362 0.0782
3.7400 1.8462 0.0864
3.7600 1.8562 0.0805
3.7800 1.8663 0.0807
3.8000 1.8763 0.0891
3.8200 1.8862 0.0844
3.8400 1.8962 0.0847
3.8600 1.9062 0.0947
3.8800 1.9163 0.0929
3.9000 1.9263 0.0854
3.9200 1.9363 0.0965
3.9400 1.9462 0.0946
3.9600 1.9562 0.0886
3.9800 1.9662 0.1000
4.0000 1.9762 0.1061
4.0200 1.9862 0.0850
4.0400 1.9963 0.1055
4.0600 2.0062 0.1043
4.0800 2.0162 0.0872
4.1000 2.0262 0.1102
4.1200 2.0362 0.1007
4.1400 2.0463 0.0880
4.1600 2.0563 0.1065
4.1800 2.0662 0.1044
4.2000 2.0762 0.0916
4.2200 2.0862 0.1136
4.2400 2.0962 0.1065
4.2600 2.1063 0.0940
4.2800 2.1163 0.1180
4.3000 2.1263 0.1117
4.3200 2.1362 0.0964
4.3400 2.1462 0.1237
4.3600 2.1563 0.1050
4.3800 2.1663 0.1047
4.4000 2.1763 0.1279
4.4200 2.1863 0.1167
4.4400 2.1962 0.1110
4.4600 2.2062 0.1275
4.4800 2.2162 0.1170
4.5000 2.2262 0.1145
4.5200 2.2362 0.1319
4.5400 2.2462 0.1189
4.5600 2.2561 0.1156
4.5800 2.2661 0.1308
4.6000 2.2762 0.1290
4.6200 2.2862 0.1218
4.6400 2.2962 0.1305
4.6600 2.3062 0.1300
4.6800 2.3162 0.1267
4.7000 2.3262 0.1369
4.7200 2.3363 0.1349
4.7400 2.3463 0.1273
4.7600 2.3563 0.1375
4.7800 2.3663 0.1321
4.8000 2.3762 0.1261
4.8200 2.3862 0.1393
4.8400 2.3962 0.1420
4.8600 2.4063 0.1257
4.8800 2.4163 0.1405
4.9000 2.4263 0.1395
4.9200 2.4362 0.1283
4.9400 2.4462 0.1475
4.9600 2.4562 0.1503
4.9800 2.4663 0.1298
5.0000 2.4763 0.1485
5.0200 2.4862 0.1429
5.0400 2.4962 0.1370
5.0600 2.5062 0.1564
5.0800 2.5162 0.1440
5.1000 2.5262 0.1415
5.1200 2.5362 0.1569
5.1400 2.5462 0.1449
5.1600 2.5562 0.1483
5.1800 2.5662 0.1633
5.2000 2.5763 0.1483
5.2200 2.5863 0.1516
5.2400 2.5963 0.1607
5.2600 2.6063 0.1462
5.2800 2.6162 0.1659
5.3000 2.6262 0.1602
5.3200 2.6362 0.1457
5.3400 2.6463 0.1673
5.3600 2.6563 0.1590
5.3800 2.6662 0.1533
5.4000 2.6762 0.1689
5.4200 2.6862 0.1609
5.4400 2.6962 0.1609
5.4600 2.7062 0.1775
5.4800 2.7162 0.1616
5.5000 2.7262 0.1653
5.5200 2.7362 0.1771
5.5400 2.7462 0.1579
5.5600 2.7562 0.1711
5.5800 2.7662 0.1798
5.6000 2.7763 0.1599
5.6200 2.7862 0.1766
5.6400 2.7962 0.1792
5.6600 2.8062 0.1680
5.6800 2.8162 0.1838
5.7000 2.8263 0.1819
5.7200 2.8363 0.1624
5.7400 2.8463 0.1831
5.7600 2.8562 0.1829
5.7800 2.8662 0.1686
5.8000 2.8762 0.1848
5.8200 2.8862 0.1801
5.8400 2.8963 0.1662
5.8600 2.9062 0.1825
5.8800 2.9162 0.1833
5.9000 2.9262 0.1737
5.9200 2.9362 0.1906
5.9400 2.9463 0.1861
5.9600 2.9563 0.1786
5.9800 2.9662 0.1869
6.0000 2.9762 0.1821
6.0200 2.9862 0.1806
6.0400 2.9962 0.1887
6.0600 3.0062 0.1868
6.0800 3.0162 0.1883
6.1000 3.0262 0.1916
6.1200 3.0362 0.1893
6.1400 3.0462 0.1971
6.1600 3.0562 0.1946
6.1800 3.0663 0.1897
6.2000 3.0763 0.1986
6.2200 3.0863 0.1905
6.2400 3.0962 0.1986
6.2600 3.1062 0.2008
6.2800 3.1162 0.1955
6.3000 3.1263 0.2009
6.3200 3.1363 0.2032
6.3400 3.1463 0.1951
6.3600 3.1562 0.2110
6.3800 3.1662 0.1985
6.4000 3.1762 0.1991
6.4200 3.1862 0.2117
6.4400 3.1962 0.2009
6.4600 3.2062 0.2025
6.4800 3.2162 0.2162
6.5000 3.2261 0.2032
6.5200 3.2361 0.2010
6.5400 3.2461 0.2165
6.5600 3.2562 0.2023
6.5800 3.2662 0.1999
6.6000 3.2762 0.2122
6.6200 3.2862 0.1982
6.6400 3.2962 0.2004
6.6600 3.3063 0.2100
6.6800 3.3163 0.2014
6.7000 3.3263 0.2076
6.7200 3.3363 0.2144
6.7400 3.3463 0.2025
6.7600 3.3563 0.2158
6.7800 3.3663 0.2134
6.8000 3.3763 0.2022
6.8200 3.3863 0.2135
6.8400 3.3962 0.2125
6.8600 3.4062 0.2062
6.8800 3.4162 0.2175
6.9000 3.4262 0.2169
6.9200 3.4363 0.2103
6.9400 3.4462 0.2229
6.9600 3.4562 0.2163
6.9800 3.4662 0.2154
7.0000 3.4762 0.2229
7.0200 3.4862 0.2234
7.0400 3.4962 0.2130
7.0600 3.5062 0.2217
7.0800 3.5162 0.2287
7.1000 3.5262 0.2173
7.1200 3.5362 0.2277
7.1400 3.5463 0.2292
7.1600 3.5563 0.2117
7.1800 3.5663 0.2277
7.2000 3.5762 0.2359
7.2200 3.5862 0.2183
7.2400 3.5962 0.2318
7.2600 3.6063 0.2379
7.2800 3.6163 0.2183
7.3000 3.6263 0.2330
7.3200 3.6362 0.2397
7.3400 3.6462 0.2193
7.3600 3.6562 0.2346
7.3800 3.6662 0.2398
7.4000 3.6762 0.2172
7.4200 3.6862 0.2344
7.4400 3.6961 0.2416
7.4600 3.7061 0.2151
7.4800 3.7161 0.2421
7.5000 3.7262 0.2449
7.5200 3.7362 0.2200
7.5400 3.7463 0.2466
7.5600 3.7562 0.2445
7.5800 3.7662 0.2219
7.6000 3.7762 0.2463
7.6200 3.7863 0.2425
7.6400 3.7963 0.2239
7.6600 3.8063 0.2492
7.6800 3.8162 0.2482
7.7000 3.8262 0.2259
7.7200 3.8362 0.2525
7.7400 3.8462 0.2466
7.7600 3.8563 0.2302
7.7800 3.8663 0.2565
7.8000 3.8762 0.2483
7.8200 3.8862 0.2327
7.8400 3.8962 0.2611
7.8600 3.9062 0.2542
7.8800 3.9162 0.2339
7.9000 3.9262 0.2575
7.9200 3.9362 0.2521
7.9400 3.9462 0.2384
7.9600 3.9562 0.2651
7.9800 3.9662 0.2556
8.0000 3.9762 0.2407
8.0200 3.9862 0.2616
8.0400 3.9962 0.2517
8.0600 4.0062 0.2434
8.0800 4.0162 0.2624
8.1000 4.0262 0.2537
8.1200 4.0363 0.2405
8.1400 4.0463 0.2596
8.1600 4.0562 0.2526
8.1800 4.0662 0.2513
8.2000 4.0762 0.2614
8.2200 4.0863 0.2512
8.2400 4.0963 0.2516
8.2600 4.1063 0.2664
8.2800 4.1162 0.2535
8.3000 4.1262 0.2561
8.3200 4.1362 0.2658
8.3400 4.1462 0.2566
8.3600 4.1562 0.2566
8.3800 4.1663 0.2700
8.4000 4.1762 0.2524
8.4200 4.1862 0.2632
8.4400 4.1962 0.2703
8.4600 4.2062 0.2570
8.4800 4.2162 0.2678
8.5000 4.2262 0.2692
8.5200 4.2362 0.2593
8.5400 4.2462 0.2727
8.5600 4.2562 0.2738
8.5800 4.2662 0.2680
8.6000 4.2763 0.2695
8.6200 4.2863 0.2730
8.6400 4.2962 0.2686
8.6600 4.3062 0.2752
8.6800 4.3162 0.2688
8.7000 4.3263 0.2753
8.7200 4.3363 0.2749
8.7400 4.3463 0.2709
8.7600 4.3562 0.2749
8.7800 4.3662 0.2700
8.8000 4.3762 0.2763
8.8200 4.3862 0.2733
8.8400 4.3963 0.2663
8.8600 4.4063 0.2743
8.8800 4.4162 0.2724
8.9000 4.4261 0.2695
8.9200 4.4361 0.2784
8.9400 4.4462 0.2783
8.9600 4.4562 0.2719
8.9800 4.4662 0.2773
9.0000 4.4761 0.2785
9.0200 4.4861 0.2717
9.0400 4.4961 0.2877
9.0600 4.5062 0.2734
9.0800 4.5163 0.2763
9.1000 4.5263 0.2843
9.1200 4.5363 0.2770
9.1400 4.5463 0.2816
9.1600 4.5562 0.2864
9.1800 4.5663 0.2793
9.2000 4.5763 0.2864
9.2200 4.5863 0.2826
9.2400 4.5963 0.2853
9.2600 4.6062 0.2905
9.2800 4.6162 0.2834
9.3000 4.6262 0.2818
9.3200 4.6362 0.2922
9.3400 4.6462 0.2828
9.3600 4.6562 0.2833
9.3800 4.6661 0.2934
9.4000 4.6762 0.2827
9.4200 4.6862 0.2877
9.4400 4.6962 0.2977
9.4600 4.7063 0.2867
9.4800 4.7162 0.2884
9.5000 4.7262 0.2979
9.5200 4.7362 0.2884
9.5400 4.7463 0.2935
9.5600 4.7563 0.2973
9.5800 4.7663 0.2866
9.6000 4.7763 0.2950
9.6200 4.7862 0.3002
9.6400 4.7962 0.2888
9.6600 4.8062 0.2984
9.6800 4.8163 0.2970
9.7000 4.8263 0.2953
9.7200 4.8362 0.2967
9.7400 4.8461 0.3058
9.7600 4.8561 0.2996
9.7800 4.8662 0.2949
9.8000 4.8762 0.3031
9.8200 4.8862 0.2968
9.8400 4.8962 0.2980
9.8600 4.9062 0.3032
9.8800 4.9162 0.2950
9.9000 4.9262 0.2957
9.9200 4.9362 0.3051
9.9400 4.9463 0.2977
9.9600 4.9563 0.2980
9.9800 4.9662 0.3131
10.0000 4.9762 0.3001
10.0200 4.9863 0.3003
10.0400 4.9963 0.3176
10.0600 5.0063 0.2949
10.0800 5.0163 0.3047
10.1000 5.0262 0.3164
10.1200 5.0362 0.2953
10.1400 5.0463 0.3103
10.1600 5.0563 0.3190
10.1800 5.0663 0.2967
10.2000 5.0763 0.3127
10.2200 5.0862 0.3179
10.2400 5.0962 0.3052
10.2600 5.1062 0.3104
10.2800 5.1162 0.3176
10.3000 5.1263 0.3029
10.3200 5.1362 0.3095
10.3400 5.1462 0.3147
10.3600 5.1561 0.3030
10.3800 5.1662 0.3059
10.4000 5.1762 0.3185
10.4200 5.1862 0.2983
10.4400 5.1962 0.3094
10.4600 5.2062 0.3194
10.4800 5.2162 0.3028
10.5000 5.2262 0.3115
10.5200 5.2363 0.3207
10.5400 5.2463 0.3014
10.5600 5.2563 0.3139
10.5800 5.2663 0.3183
10.6000 5.2762 0.3060
10.6200 5.2862 0.3168
10.6400 5.2963 0.3203
10.6600 5.3063 0.3053
10.6800 5.3162 0.3201
10.7000 5.3262 0.3285
10.7200 5.3362 0.3089
10.7400 5.3462 0.3224
10.7600 5.3563 0.3244
10.7800 5.3663 0.3131
10.8000 5.3762 0.3261
10.8200 5.3862 0.3258
10.8400 5.3962 0.3126
10.8600 5.4062 0.3273
10.8800 5.4162 0.3264
10.9000 5.4262 0.3167
10.9200 5.4362 0.3252
10.9400 5.4462 0.3279
10.9600 5.4562 0.3219
10.9800 5.4662 0.3276
11.0000 5.4762 0.3268
11.0200 5.4863 0.3245
11.0400 5.4963 0.3207
11.0600 5.5062 0.3272
11.0800 5.5162 0.3257
11.1000 5.5262 0.3206
11.1200 5.5363 0.3248
11.1400 5.5463 0.3296
11.1600 5.5563 0.3207
11.1800 5.5662 0.3318
11.2000 5.5762 0.3349
11.2200 5.5862 0.3189
11.2400 5.5962 0.3337
11.2600 5.6062 0.3346
11.2800 5.6162 0.3196
11.3000 5.6262 0.3342
11.3200 5.6362 0.3386
11.3400 5.6462 0.3185
11.3600 5.6562 0.3378
11.3800 5.6662 0.3388
11.4000 5.6762 0.3175
11.4200 5.6862 0.3402
11.4400 5.6962 0.3391
11.4600 5.7062 0.3215
11.4800 5.7163 0.3445
11.5000 5.7263 0.3388
11.5200 5.7363 0.3247
11.5400 5.7462 0.3477
11.5600 5.7562 0.3457
11.5800 5.7662 0.3241
11.6000 5.7763 0.3521
11.6200 5.7863 0.3384
11.6400 5.7963 0.3235
11.6600 5.8062 0.3572
11.6800 5.8162 0.3395
11.7000 5.8262 0.3291
11.7200 5.8362 0.3637
11.7400 5.8463 0.3403
11.7600 5.8562 0.3312
11.7800 5.8662 0.3589
11.8000 5.8761 0.3429
11.8200 5.8861 0.3327
11.8400 5.8962 0.3534
11.8600 5.9062 0.3390
11.8800 5.9162 0.3369
11.9000 5.9262 0.3597
11.9200 5.9362 0.3391
11.9400 5.9462 0.3418
11.9600 5.9563 0.3560
11.9800 5.9663 0.3433
12.0000 5.9763 0.3429
12.0200 5.9863 0.3565
12.0400 5.9963 0.3483
12.0600 6.0063 0.3427
12.0800 6.0163 0.3570
12.1000 6.0263 0.3491
12.1200 6.0363 0.3415
12.1400 6.0462 0.3636
12.1600 6.0562 0.3486
12.1800 6.0662 0.3469
12.2000 6.0762 0.3648
12.2200 6.0862 0.3512
12.2400 6.0962 0.3406
12.2600 6.1061 0.3714
12.2800 6.1161 0.3518
12.3000 6.1261 0.3433
12.3200 6.1362 0.3664
12.3400 6.1463 0.3474
12.3600 6.1563 0.3401
12.3800 6.1662 0.3635
12.4000 6.1762 0.3418
12.4200 6.1862 0.3469
12.4400 6.1963 0.3648
12.4600 6.2063 0.3476
12.4800 6.2163 0.3498
12.5000 6.2262 0.3655
12.5200 6.2362 0.3456
12.5400 6.2462 0.3538
12.5600 6.2562 0.3596
12.5800 6.2663 0.3454
12.6000 6.2763 0.3578
12.6200 6.2862 0.3585
12.6400 6.2962 0.3533
12.6600 6.3062 0.3644
12.6800 6.3162 0.3586
12.7000 6.3263 0.3556
12.7200 6.3363 0.3637
12.7400 6.3462 0.3567
12.7600 6.3562 0.3619
12.7800 6.3662 0.3627
12.8000 6.3762 0.3579
12.8200 6.3862 0.3633
12.8400 6.3962 0.3631
12.8600 6.4062 0.3557
12.8800 6.4162 0.3687
12.9000 6.4262 0.3629
12.9200 6.4362 0.3603
12.9400 6.4462 0.3722
12.9600 6.4562 0.3629
12.9800 6.4662 0.3664
13.0000 6.4762 0.3762
13.0200 6.4862 0.3638
13.0400 6.4962 0.3691
13.0600 6.5063 0.3693
13.0800 6.5163 0.3617
13.1000 6.5262 0.3649
13.1200 6.5362 0.3719
13.1400 6.5462 0.3592
13.1600 6.5562 0.3710
13.1800 6.5663 0.3685
13.2000 6.5763 0.3547
13.2200 6.5862 0.3748
13.2400 6.5962 0.3712
13.2600 6.6062 0.3613
13.2800 6.6162 0.3783
13.3000 6.6262 0.3685
13.3200 6.6362 0.3616
13.3400 6.6462 0.3771
13.3600 6.6562 0.3667
13.3800 6.6662 0.3636
13.4000 6.6762 0.3797
13.4200 6.6863 0.3660
13.4400 6.6963 0.3651
13.4600 6.7063 0.3876
13.4800 6.7162 0.3703
13.5000 6.7262 0.3726
13.5200 6.7363 0.3824
13.5400 6.7463 0.3713
13.5600 6.7563 0.3749
13.5800 6.7662 0.3812
13.6000 6.7762 0.3734
13.6200 6.7862 0.3830
13.6400 6.7962 0.3776
13.6600 6.8063 0.3731
13.6800 6.8163 0.3819
13.7000 6.8262 0.3820
13.7200 6.8362 0.3747
13.7400 6.8461 0.3799
13.7600 6.8562 0.3827
13.7800 6.8663 0.3750
13.8000 6.8763 0.3729
13.8200 6.8862 0.3856
13.8400 6.8962 0.3736
13.8600 6.9062 0.3774
13.8800 6.9162 0.3818
13.9000 6.9262 0.3772
13.9200 6.9363 0.3831
13.9400 6.9463 0.3837
13.9600 6.9562 0.3778
13.9800 6.9662 0.3846
14.0000 6.9763 0.3808
14.0200 6.9863 0.3726
14.0400 6.9963 0.3840
14.0600 7.0063 0.3812
14.0800 7.0162 0.3871
14.1000 7.0262 0.3876
14.1200 7.0362 0.3811
14.1400 7.0463 0.3867
14.1600 7.0563 0.3877
14.1800 7.0662 0.3845
14.2000 7.0762 0.3864
14.2200 7.0861 0.3857
14.2400 7.0962 0.3856
14.2600 7.1062 0.3917
14.2800 7.1162 0.3910
14.3000 7.1262 0.3860
14.3200 7.1362 0.3944
14.3400 7.1462 0.3859
14.3600 7.1562 0.3925
14.3800 7.1663 0.3955
14.4000 7.1763 0.3884
14.4200 7.1863 0.3937
14.4400 7.1962 0.3927
14.4600 7.2062 0.3890
14.4800 7.2162 0.3966
14.5000 7.2263 0.3934
14.5200 7.2363 0.3901
14.5400 7.2462 0.3920
14.5600 7.2562 0.3923
14.5800 7.2662 0.3940
14.6000 7.2762 0.3960
14.6200 7.2862 0.3913
14.6400 7.2963 0.3923
14.6600 7.3062 0.3992
14.6800 7.3162 0.3909
14.7000 7.3262 0.3972
14.7200 7.3362 0.3975
14.7400 7.3462 0.3941
14.7600 7.3562 0.3931
14.7800 7.3662 0.4015
14.8000 7.3762 0.3928
14.8200 7.3862 0.4003
14.8400 7.3962 0.4036
14.8600 7.4063 0.3965
14.8800 7.4163 0.3990
14.9000 7.4263 0.4055
14.9200 7.4362 0.3964
14.9400 7.4462 0.4032
14.9600 7.4562 0.4043
14.9800 7.4663 0.4017
15.0000 7.4763 0.3997
15.0200 7.4862 0.4067
15.0400 7.4962 0.3986
15.0600 7.5062 0.4068
15.0800 7.5162 0.4024
15.1000 7.5262 0.3940
15.1200 7.5362 0.4100
15.1400 7.5462 0.4019
15.1600 7.5562 0.4000
15.1800 7.5661 0.4115
15.2000 7.5762 0.3996
15.2200 7.5862 0.3980
15.2400 7.5963 0.4120
15.2600 7.6062 0.3990
15.2800 7.6162 0.4033
15.3000 7.6262 0.4147
15.3200 7.6362 0.4000
15.3400 7.6463 0.4045
15.3600 7.6563 0.4157
15.3800 7.6663 0.4022
15.4000 7.6762 0.4057
15.4200 7.6862 0.4123
15.4400 7.6962 0.4088
15.4600 7.7062 0.4075
15.4800 7.7163 0.4173
15.5000 7.7262 0.4049
15.5200 7.7362 0.4117
15.5400 7.7462 0.4144
15.5600 7.7562 0.4048
15.5800 7.7663 0.4123
15.6000 7.7763 0.4126
15.6200 7.7862 0.4015
15.6400 7.7962 0.4127
15.6600 7.8062 0.4104
15.6800 7.8162 0.4102
15.7000 7.8262 0.4153
15.7200 7.8362 0.4122
15.7400 7.8462 0.4080
15.7600 7.8562 0.4125
15.7800 7.8662 0.4168
15.8000 7.8762 0.4101
15.8200 7.8863 0.4153
15.8400 7.8963 0.4140
15.8600 7.9063 0.4132
15.8800 7.9163 0.4161
15.9000 7.9262 0.4168
15.9200 7.9363 0.4159
15.9400 7.9463 0.4174
15.9600 7.9563 0.4181
15.9800 7.9663 0.4157
16.0000 7.9762 0.4158
16.0200 7.9862 0.4210
16.0400 7.9962 0.4156
16.0600 8.0062 0.4154
16.0800 8.0162 0.4209
16.1000 8.0262 0.4118
16.1200 8.0362 0.4148
16.1400 8.0461 0.4267
16.1600 8.0561 0.4143
16.1800 8.0661 0.4200
16.2000 8.0762 0.4196
16.2200 8.0862 0.4195
16.2400 8.0962 0.4171
16.2600 8.1062 0.4261
16.2800 8.1162 0.4228
16.3000 8.1263 0.4187
16.3200 8.1363 0.4236
16.3400 8.1463 0.4225
16.3600 8.1563 0.4220
16.3800 8.1663 0.4283
16.4000 8.1763 0.4232
16.4200 8.1863 0.4250
16.4400 8.1963 0.4260
16.4600 8.2063 0.4235
16.4800 8.2162 0.4210
16.5000 8.2262 0.4247
16.5200 8.2362 0.4249
16.5400 8.2462 0.4216
16.5600 8.2563 0.4261
16.5800 8.2662 0.4244
16.6000 8.2762 0.4251
16.6200 8.2861 0.4283
16.6400 8.2961 0.4235
16.6600 8.3062 0.4248
16.6800 8.3162 0.4347
16.7000 8.3262 0.4250
16.7200 8.3362 0.4188
16.7400 8.3462 0.4356
16.7600 8.3562 0.4281
16.7800 8.3662 0.4236
16.8000 8.3763 0.4411
16.8200 8.3863 0.4231
16.8400 8.3962 0.4268
16.8600 8.4062 0.4438
16.8800 8.4162 0.4257
16.9000 8.4263 0.4239
16.9200 8.4363 0.4431
16.9400 8.4463 0.4201
16.9600 8.4562 0.4235
16.9800 8.4662 0.4432
17.0000 8.4762 0.4276
17.0200 8.4862 0.4233
17.0400 8.4962 0.4419
17.0600 8.5062 0.4260
17.0800 8.5162 0.4258
17.1000 8.5261 0.4478
17.1200 8.5361 0.4299
17.1400 8.5462 0.4217
17.1600 8.5562 0.4456
17.1800 8.5662 0.4263
17.2000 8.5762 0.4236
17.2200 8.5862 0.4529
17.2400 8.5962 0.4270
17.2600 8.6063 0.4271
17.2800 8.6163 0.4530
17.3000 8.6263 0.4337
17.3200 8.6363 0.4328
17.3400 8.6462 0.4520
17.3600 8.6562 0.4334
17.3800 8.6662 0.4372
17.4000 8.6763 0.4456
17.4200 8.6863 0.4322
17.4400 8.6962 0.4387
17.4600 8.7062 0.4515
17.4800 8.7162 0.4327
17.5000 8.7262 0.4364
17.5200 8.7362 0.4475
17.5400 8.7462 0.4385
17.5600 8.7562 0.4390
17.5800 8.7662 0.4473
17.6000 8.7762 0.4452
17.6200 8.7862 0.4368
17.6400 8.7962 0.4495
17.6600 8.8062 0.4490
17.6800 8.8162 0.4355
17.7000 8.8262 0.4486
