Raw Data
Time Displacement Force
(s) (mm) (N)
0.0000 0.0000 0.0040
0.0200 0.0001 0.0002
0.0400 0.0013 0.0585
0.0600 0.0066 0.0603
0.0800 0.0151 -0.0103
0.1000 0.0240 0.0015
0.1200 0.0333 0.0283
0.1400 0.0434 0.0083
0.1600 0.0542 0.0097
0.1800 0.0651 0.0074
0.2000 0.0757 0.0045
0.2200 0.0859 0.0144
0.2400 0.0959 0.0152
0.2600 0.1059 0.0119
0.2800 0.1160 0.0238
0.3000 0.1260 0.0151
0.3200 0.1360 0.0240
0.3400 0.1460 0.0417
0.3600 0.1560 0.0099
0.3800 0.1661 0.0316
0.4000 0.1761 0.0468
0.4200 0.1861 0.0180
0.4400 0.1961 0.0492
0.4600 0.2060 0.0515
0.4800 0.2160 0.0222
0.5000 0.2260 0.0567
0.5200 0.2361 0.0578
0.5400 0.2461 0.0292
0.5600 0.2560 0.0726
0.5800 0.2660 0.0646
0.6000 0.2760 0.0277
0.6200 0.2860 0.0857
0.6400 0.2961 0.0681
0.6600 0.3060 0.0430
0.6800 0.3160 0.0896
0.7000 0.3259 0.0765
0.7200 0.3359 0.0607
0.7400 0.3460 0.0924
0.7600 0.3560 0.0766
0.7800 0.3660 0.0744
0.8000 0.3760 0.1022
0.8200 0.3860 0.0742
0.8400 0.3960 0.0796
0.8600 0.4060 0.1111
0.8800 0.4161 0.0775
0.9000 0.4261 0.0962
0.9200 0.4361 0.1113
0.9400 0.4460 0.0864
0.9600 0.4560 0.1069
0.9800 0.4661 0.1200
1.0000 0.4761 0.1001
1.0200 0.4861 0.1139
1.0400 0.4960 0.1231
1.0600 0.5060 0.1011
1.0800 0.5160 0.1249
1.1000 0.5261 0.1308
1.1200 0.5361 0.1102
1.1400 0.5461 0.1318
1.1600 0.5560 0.1307
1.1800 0.5659 0.1236
1.2000 0.5759 0.1419
1.2200 0.5860 0.1335
1.2400 0.5960 0.1275
1.2600 0.6060 0.1414
1.2800 0.6160 0.1450
1.3000 0.6260 0.1362
1.3200 0.6359 0.1525
1.3400 0.6460 0.1482
1.3600 0.6560 0.1311
1.3800 0.6661 0.1547
1.4000 0.6761 0.1477
1.4200 0.6860 0.1358
1.4400 0.6960 0.1568
1.4600 0.7060 0.1527
1.4800 0.7161 0.1417
1.5000 0.7261 0.1605
1.5200 0.7361 0.1577
1.5400 0.7460 0.1472
1.5600 0.7560 0.1750
1.5800 0.7660 0.1572
1.6000 0.7760 0.1566
1.6200 0.7860 0.1812
1.6400 0.7960 0.1633
1.6600 0.8060 0.1646
1.6800 0.8159 0.1863
1.7000 0.8259 0.1701
1.7200 0.8360 0.1711
1.7400 0.8460 0.1907
1.7600 0.8560 0.1780
1.7800 0.8660 0.1778
1.8000 0.8760 0.1997
1.8200 0.8861 0.1819
1.8400 0.8961 0.1859
1.8600 0.9061 0.1994
1.8800 0.9161 0.1874
1.9000 0.9260 0.1920
1.9200 0.9360 0.2001
1.9400 0.9460 0.1975
1.9600 0.9561 0.1973
1.9800 0.9661 0.2032
2.0000 0.9761 0.1967
2.0200 0.9860 0.2010
2.0400 0.9960 0.2095
2.0600 1.0060 0.2043
2.0800 1.0160 0.2080
2.1000 1.0260 0.2139
2.1200 1.0360 0.2046
2.1400 1.0460 0.2181
2.1600 1.0559 0.2194
2.1800 1.0660 0.2125
2.2000 1.0760 0.2223
2.2200 1.0860 0.2233
2.2400 1.0960 0.2167
2.2600 1.1060 0.2331
2.2800 1.1160 0.2282
2.3000 1.1260 0.2219
2.3200 1.1361 0.2414
2.3400 1.1461 0.2290
2.3600 1.1561 0.2264
2.3800 1.1661 0.2481
2.4000 1.1761 0.2341
2.4200 1.1861 0.2337
2.4400 1.1961 0.2509
2.4600 1.2061 0.2409
2.4800 1.2161 0.2384
2.5000 1.2260 0.2593
2.5200 1.2360 0.2463
2.5400 1.2460 0.2410
2.5600 1.2560 0.2634
2.5800 1.2660 0.2476
2.6000 1.2760 0.2507
2.6200 1.2859 0.2674
2.6400 1.2959 0.2480
2.6600 1.3060 0.2535
2.6800 1.3160 0.2661
2.7000 1.3261 0.2541
2.7200 1.3361 0.2612
2.7400 1.3460 0.2762
2.7600 1.3560 0.2622
2.7800 1.3660 0.2669
2.8000 1.3761 0.2792
2.8200 1.3861 0.2664
2.8400 1.3961 0.2742
2.8600 1.4061 0.2841
2.8800 1.4160 0.2745
2.9000 1.4260 0.2773
2.9200 1.4361 0.2858
2.9400 1.4461 0.2801
2.9600 1.4561 0.2803
2.9800 1.4661 0.2943
3.0000 1.4760 0.2874
3.0200 1.4860 0.2883
3.0400 1.4960 0.2977
3.0600 1.5061 0.2860
3.0800 1.5161 0.2933
3.1000 1.5261 0.3006
3.1200 1.5360 0.2931
3.1400 1.5460 0.2948
3.1600 1.5560 0.3046
3.1800 1.5660 0.2955
3.2000 1.5760 0.3001
3.2200 1.5860 0.3077
3.2400 1.5960 0.2979
3.2600 1.6060 0.3066
3.2800 1.6160 0.3092
3.3000 1.6260 0.3018
3.3200 1.6360 0.3178
3.3400 1.6460 0.3117
3.3600 1.6560 0.3097
3.3800 1.6660 0.3210
3.4000 1.6761 0.3118
3.4200 1.6861 0.3160
3.4400 1.6961 0.3248
3.4600 1.7060 0.3202
3.4800 1.7160 0.3199
3.5000 1.7260 0.3321
3.5200 1.7361 0.3230
3.5400 1.7461 0.3256
3.5600 1.7561 0.3339
3.5800 1.7660 0.3201
3.6000 1.7760 0.3338
3.6200 1.7860 0.3374
3.6400 1.7960 0.3224
3.6600 1.8060 0.3393
3.6800 1.8160 0.3361
3.7000 1.8260 0.3235
3.7200 1.8360 0.3475
3.7400 1.8460 0.3450
3.7600 1.8561 0.3332
3.7800 1.8661 0.3508
3.8000 1.8761 0.3469
3.8200 1.8860 0.3356
3.8400 1.8960 0.3591
3.8600 1.9060 0.3470
3.8800 1.9161 0.3434
3.9000 1.9261 0.3586
3.9200 1.9361 0.3464
3.9400 1.9460 0.3560
3.9600 1.9560 0.3605
3.9800 1.9659 0.3582
4.0000 1.9759 0.3624
4.0200 1.9860 0.3670
4.0400 1.9961 0.3597
4.0600 2.0060 0.3666
4.0800 2.0160 0.3740
4.1000 2.0260 0.3661
4.1200 2.0361 0.3651
4.1400 2.0461 0.3721
4.1600 2.0561 0.3661
4.1800 2.0660 0.3683
4.2000 2.0760 0.3808
4.2200 2.0860 0.3749
4.2400 2.0960 0.3705
4.2600 2.1061 0.3820
4.2800 2.1161 0.3797
4.3000 2.1261 0.3845
4.3200 2.1361 0.3873
4.3400 2.1461 0.3780
4.3600 2.1561 0.3845
4.3800 2.1661 0.3867
4.4000 2.1761 0.3794
4.4200 2.1861 0.3914
4.4400 2.1960 0.3928
4.4600 2.2060 0.3868
4.4800 2.2160 0.3917
4.5000 2.2260 0.3961
4.5200 2.2360 0.3912
4.5400 2.2460 0.3989
4.5600 2.2559 0.3964
4.5800 2.2659 0.3943
4.6000 2.2760 0.4026
4.6200 2.2860 0.3970
4.6400 2.2960 0.4037
4.6600 2.3060 0.4053
4.6800 2.3160 0.4071
4.7000 2.3260 0.4067
4.7200 2.3361 0.4057
4.7400 2.3461 0.4045
4.7600 2.3561 0.4102
4.7800 2.3661 0.4165
4.8000 2.3760 0.4131
4.8200 2.3860 0.4154
4.8400 2.3961 0.4231
4.8600 2.4061 0.4166
4.8800 2.4161 0.4163
4.9000 2.4260 0.4271
4.9200 2.4360 0.4239
4.9400 2.4460 0.4180
4.9600 2.4560 0.4266
4.9800 2.4661 0.4237
5.0000 2.4761 0.4199
5.0200 2.4860 0.4285
5.0400 2.4960 0.4296
5.0600 2.5060 0.4259
5.0800 2.5160 0.4359
5.1000 2.5260 0.4284
5.1200 2.5360 0.4275
5.1400 2.5460 0.4418
5.1600 2.5560 0.4322
5.1800 2.5660 0.4325
5.2000 2.5761 0.4402
5.2200 2.5861 0.4372
5.2400 2.5961 0.4389
5.2600 2.6061 0.4410
5.2800 2.6160 0.4469
5.3000 2.6260 0.4483
5.3200 2.6361 0.4484
5.3400 2.6461 0.4413
5.3600 2.6561 0.4561
5.3800 2.6660 0.4563
5.4000 2.6760 0.4468
5.4200 2.6860 0.4549
5.4400 2.6960 0.4592
5.4600 2.7060 0.4578
5.4800 2.7160 0.4569
5.5000 2.7260 0.4645
5.5200 2.7360 0.4579
5.5400 2.7460 0.4618
5.5600 2.7560 0.4614
5.5800 2.7660 0.4674
5.6000 2.7761 0.4686
5.6200 2.7860 0.4616
5.6400 2.7960 0.4694
5.6600 2.8060 0.4671
5.6800 2.8160 0.4634
5.7000 2.8261 0.4716
5.7200 2.8361 0.4609
5.7400 2.8461 0.4656
5.7600 2.8560 0.4773
5.7800 2.8660 0.4706
5.8000 2.8760 0.4706
5.8200 2.8860 0.4835
5.8400 2.8961 0.4658
5.8600 2.9060 0.4778
5.8800 2.9160 0.4896
5.9000 2.9260 0.4723
5.9200 2.9360 0.4799
5.9400 2.9461 0.4896
5.9600 2.9561 0.4788
5.9800 2.9661 0.4853
6.0000 2.9760 0.4943
6.0200 2.9860 0.4847
6.0400 2.9960 0.4859
6.0600 3.0060 0.4969
6.0800 3.0160 0.4871
6.1000 3.0260 0.4928
6.1200 3.0360 0.5020
6.1400 3.0460 0.4884
6.1600 3.0560 0.4972
6.1800 3.0661 0.5054
6.2000 3.0761 0.4938
6.2200 3.0861 0.5014
6.2400 3.0960 0.5144
6.2600 3.1060 0.4945
6.2800 3.1161 0.5050
6.3000 3.1261 0.5140
6.3200 3.1362 0.4976
6.3400 3.1461 0.5064
6.3600 3.1560 0.5141
6.3800 3.1660 0.4986
6.4000 3.1760 0.5055
6.4200 3.1860 0.5118
6.4400 3.1961 0.4989
6.4600 3.2060 0.5104
6.4800 3.2160 0.5145
6.5000 3.2259 0.5038
6.5200 3.2359 0.5142
6.5400 3.2459 0.5175
6.5600 3.2560 0.5071
6.5800 3.2660 0.5147
6.6000 3.2760 0.5231
6.6200 3.2860 0.5111
6.6400 3.2960 0.5183
6.6600 3.3061 0.5267
6.6800 3.3161 0.5159
6.7000 3.3261 0.5204
6.7200 3.3361 0.5359
6.7400 3.3461 0.5210
6.7600 3.3561 0.5239
6.7800 3.3661 0.5333
6.8000 3.3761 0.5290
6.8200 3.3861 0.5307
6.8400 3.3960 0.5411
6.8600 3.4060 0.5230
6.8800 3.4160 0.5322
6.9000 3.4260 0.5490
6.9200 3.4361 0.5269
6.9400 3.4460 0.5354
6.9600 3.4560 0.5520
6.9800 3.4660 0.5314
7.0000 3.4760 0.5374
7.0200 3.4860 0.5521
7.0400 3.4960 0.5354
7.0600 3.5060 0.5393
7.0800 3.5160 0.5562
7.1000 3.5260 0.5363
7.1200 3.5360 0.5396
7.1400 3.5461 0.5583
7.1600 3.5561 0.5386
7.1800 3.5661 0.5480
7.2000 3.5761 0.5564
7.2200 3.5860 0.5426
7.2400 3.5960 0.5515
7.2600 3.6061 0.5566
7.2800 3.6161 0.5456
7.3000 3.6261 0.5624
7.3200 3.6361 0.5599
7.3400 3.6460 0.5461
7.3600 3.6560 0.5648
7.3800 3.6660 0.5662
7.4000 3.6761 0.5528
7.4200 3.6860 0.5621
7.4400 3.6960 0.5689
7.4600 3.7059 0.5611
7.4800 3.7159 0.5619
7.5000 3.7260 0.5722
7.5200 3.7361 0.5612
7.5400 3.7461 0.5691
7.5600 3.7560 0.5800
7.5800 3.7660 0.5653
7.6000 3.7760 0.5695
7.6200 3.7861 0.5768
7.6400 3.7961 0.5680
7.6600 3.8061 0.5765
7.6800 3.8160 0.5798
7.7000 3.8260 0.5685
7.7200 3.8360 0.5768
7.7400 3.8460 0.5825
7.7600 3.8561 0.5718
7.7800 3.8661 0.5821
7.8000 3.8760 0.5840
7.8200 3.8860 0.5788
7.8400 3.8960 0.5825
7.8600 3.9060 0.5848
7.8800 3.9161 0.5810
7.9000 3.9260 0.5839
7.9200 3.9360 0.5888
7.9400 3.9460 0.5852
7.9600 3.9560 0.5911
7.9800 3.9660 0.5963
8.0000 3.9760 0.5938
8.0200 3.9860 0.5901
8.0400 3.9960 0.5959
8.0600 4.0060 0.5933
8.0800 4.0160 0.5920
8.1000 4.0261 0.5985
8.1200 4.0361 0.5953
8.1400 4.0461 0.5927
8.1600 4.0561 0.6030
8.1800 4.0660 0.6004
8.2000 4.0760 0.5917
8.2200 4.0861 0.6022
8.2400 4.0961 0.6054
8.2600 4.1061 0.5951
8.2800 4.1161 0.6112
8.3000 4.1260 0.6104
8.3200 4.1360 0.6041
8.3400 4.1460 0.6094
8.3600 4.1561 0.6098
8.3800 4.1661 0.6010
8.4000 4.1760 0.6132
8.4200 4.1860 0.6150
8.4400 4.1960 0.6060
8.4600 4.2060 0.6212
8.4800 4.2160 0.6175
8.5000 4.2260 0.6067
8.5200 4.2360 0.6251
8.5400 4.2460 0.6181
8.5600 4.2560 0.6052
8.5800 4.2660 0.6265
8.6000 4.2761 0.6197
8.6200 4.2861 0.6055
8.6400 4.2961 0.6261
8.6600 4.3060 0.6172
8.6800 4.3160 0.6084
8.7000 4.3261 0.6299
8.7200 4.3361 0.6239
8.7400 4.3461 0.6131
8.7600 4.3561 0.6274
8.7800 4.3660 0.6230
8.8000 4.3760 0.6227
8.8200 4.3860 0.6353
8.8400 4.3961 0.6242
8.8600 4.4061 0.6221
8.8800 4.4160 0.6351
8.9000 4.4260 0.6339
8.9200 4.4359 0.6229
8.9400 4.4460 0.6403
8.9600 4.4560 0.6340
8.9800 4.4660 0.6266
9.0000 4.4759 0.6413
9.0200 4.4859 0.6368
9.0400 4.4959 0.6365
9.0600 4.5060 0.6454
9.0800 4.5161 0.6387
9.1000 4.5261 0.6383
9.1200 4.5361 0.6384
9.1400 4.5461 0.6441
9.1600 4.5561 0.6410
9.1800 4.5661 0.6444
9.2000 4.5761 0.6401
9.2200 4.5861 0.6398
9.2400 4.5961 0.6433
9.2600 4.6060 0.6491
9.2800 4.6160 0.6456
9.3000 4.6260 0.6530
9.3200 4.6360 0.6527
9.3400 4.6460 0.6430
9.3600 4.6560 0.6530
9.3800 4.6660 0.6552
9.4000 4.6760 0.6468
9.4200 4.6860 0.6594
9.4400 4.6960 0.6548
9.4600 4.7061 0.6515
9.4800 4.7160 0.6633
9.5000 4.7260 0.6556
9.5200 4.7361 0.6561
9.5400 4.7461 0.6667
9.5600 4.7561 0.6575
9.5800 4.7661 0.6566
9.6000 4.7761 0.6716
9.6200 4.7860 0.6604
9.6400 4.7960 0.6608
9.6600 4.8061 0.6749
9.6800 4.8161 0.6611
9.7000 4.8261 0.6660
9.7200 4.8360 0.6707
9.7400 4.8459 0.6653
9.7600 4.8559 0.6680
9.7800 4.8659 0.6710
9.8000 4.8760 0.6746
9.8200 4.8860 0.6670
9.8400 4.8960 0.6716
9.8600 4.9060 0.6708
9.8800 4.9160 0.6690
9.9000 4.9260 0.6777
9.9200 4.9360 0.6740
9.9400 4.9461 0.6654
9.9600 4.9561 0.6737
9.9800 4.9660 0.6799
10.0000 4.9760 0.6783
10.0200 4.9860 0.6798
10.0400 4.9961 0.6812
10.0600 5.0061 0.6807
10.0800 5.0161 0.6837
10.1000 5.0260 0.6801
10.1200 5.0360 0.6873
10.1400 5.0461 0.6900
10.1600 5.0561 0.6849
10.1800 5.0661 0.6833
10.2000 5.0761 0.6813
10.2200 5.0860 0.6926
10.2400 5.0960 0.6935
10.2600 5.1060 0.6804
10.2800 5.1161 0.6943
10.3000 5.1261 0.6910
10.3200 5.1360 0.6770
10.3400 5.1460 0.6991
10.3600 5.1559 0.7046
10.3800 5.1660 0.6835
10.4000 5.1760 0.6925
10.4200 5.1861 0.7020
10.4400 5.1960 0.6868
10.4600 5.2060 0.6974
10.4800 5.2160 0.7058
10.5000 5.2260 0.6877
10.5200 5.2361 0.7004
10.5400 5.2461 0.7128
10.5600 5.2561 0.6881
10.5800 5.2661 0.7089
10.6000 5.2761 0.7192
10.6200 5.2861 0.6883
10.6400 5.2961 0.7088
10.6600 5.3061 0.7184
10.6800 5.3160 0.6900
10.7000 5.3260 0.7122
10.7200 5.3360 0.7155
10.7400 5.3460 0.6869
10.7600 5.3561 0.7155
10.7800 5.3661 0.7159
10.8000 5.3760 0.6909
10.8200 5.3860 0.7253
10.8400 5.3960 0.7184
10.8600 5.4060 0.6979
10.8800 5.4160 0.7249
10.9000 5.4260 0.7152
10.9200 5.4360 0.7014
10.9400 5.4460 0.7300
10.9600 5.4560 0.7173
10.9800 5.4660 0.7060
11.0000 5.4760 0.7308
11.0200 5.4861 0.7215
11.0400 5.4961 0.7088
11.0600 5.5060 0.7290
11.0800 5.5160 0.7253
11.1000 5.5260 0.7134
11.1200 5.5361 0.7321
11.1400 5.5461 0.7287
11.1600 5.5561 0.7134
11.1800 5.5660 0.7328
11.2000 5.5760 0.7347
11.2200 5.5860 0.7169
11.2400 5.5960 0.7349
11.2600 5.6060 0.7340
11.2800 5.6160 0.7217
11.3000 5.6260 0.7369
11.3200 5.6360 0.7377
11.3400 5.6460 0.7283
11.3600 5.6560 0.7392
11.3800 5.6660 0.7406
11.4000 5.6760 0.7277
11.4200 5.6860 0.7437
11.4400 5.6960 0.7443
11.4600 5.7061 0.7324
11.4800 5.7161 0.7505
11.5000 5.7261 0.7393
11.5200 5.7361 0.7293
11.5400 5.7460 0.7507
11.5600 5.7560 0.7455
11.5800 5.7660 0.7348
11.6000 5.7761 0.7501
11.6200 5.7861 0.7421
11.6400 5.7961 0.7392
11.6600 5.8060 0.7561
11.6800 5.8160 0.7453
11.7000 5.8260 0.7414
11.7200 5.8360 0.7553
11.7400 5.8461 0.7435
11.7600 5.8560 0.7487
11.7800 5.8660 0.7555
11.8000 5.8759 0.7495
11.8200 5.8860 0.7539
11.8400 5.8960 0.7569
11.8600 5.9060 0.7541
11.8800 5.9160 0.7534
11.9000 5.9260 0.7622
11.9200 5.9360 0.7573
11.9400 5.9460 0.7544
11.9600 5.9561 0.7610
11.9800 5.9661 0.7603
12.0000 5.9761 0.7555
12.0200 5.9861 0.7698
12.0400 5.9961 0.7617
12.0600 6.0061 0.7599
12.0800 6.0161 0.7700
12.1000 6.0261 0.7632
12.1200 6.0361 0.7639
12.1400 6.0460 0.7694
12.1600 6.0560 0.7598
12.1800 6.0660 0.7662
12.2000 6.0760 0.7662
12.2200 6.0860 0.7612
12.2400 6.0960 0.7703
12.2600 6.1059 0.7665
12.2800 6.1159 0.7652
12.3000 6.1260 0.7773
12.3200 6.1360 0.7679
12.3400 6.1460 0.7625
12.3600 6.1561 0.7754
12.3800 6.1660 0.7699
12.4000 6.1760 0.7690
12.4200 6.1860 0.7788
12.4400 6.1961 0.7680
12.4600 6.2061 0.7837
12.4800 6.2161 0.7761
12.5000 6.2261 0.7683
12.5200 6.2360 0.7875
12.5400 6.2460 0.7829
12.5600 6.2560 0.7693
12.5800 6.2661 0.7880
12.6000 6.2761 0.7851
12.6200 6.2860 0.7715
12.6400 6.2960 0.7933
12.6600 6.3060 0.7878
12.6800 6.3160 0.7796
12.7000 6.3261 0.7938
12.7200 6.3361 0.7843
12.7400 6.3460 0.7837
12.7600 6.3560 0.7961
12.7800 6.3660 0.7906
12.8000 6.3760 0.7859
12.8200 6.3860 0.7949
12.8400 6.3960 0.7942
12.8600 6.4060 0.7867
12.8800 6.4160 0.8003
12.9000 6.4260 0.7926
12.9200 6.4360 0.7848
12.9400 6.4460 0.7950
12.9600 6.4560 0.7890
12.9800 6.4660 0.7861
13.0000 6.4760 0.8059
13.0200 6.4860 0.7894
13.0400 6.4961 0.7901
13.0600 6.5061 0.8074
13.0800 6.5161 0.7922
13.1000 6.5260 0.7974
13.1200 6.5360 0.8098
13.1400 6.5460 0.7903
13.1600 6.5560 0.7991
13.1800 6.5661 0.8035
13.2000 6.5761 0.7948
13.2200 6.5860 0.8077
13.2400 6.5960 0.8076
13.2600 6.6060 0.7991
13.2800 6.6160 0.8146
13.3000 6.6260 0.8071
13.3200 6.6360 0.8097
13.3400 6.6460 0.8146
13.3600 6.6560 0.8123
13.3800 6.6660 0.8093
13.4000 6.6760 0.8116
13.4200 6.6861 0.8102
13.4400 6.6961 0.8154
13.4600 6.7061 0.8125
13.4800 6.7160 0.8136
13.5000 6.7260 0.8205
13.5200 6.7361 0.8133
13.5400 6.7461 0.8154
13.5600 6.7561 0.8254
13.5800 6.7660 0.8141
13.6000 6.7760 0.8174
13.6200 6.7860 0.8217
13.6400 6.7960 0.8140
13.6600 6.8061 0.8246
13.6800 6.8161 0.8260
13.7000 6.8260 0.8152
13.7200 6.8360 0.8232
13.7400 6.8460 0.8280
13.7600 6.8560 0.8187
13.7800 6.8661 0.8309
13.8000 6.8761 0.8295
13.8200 6.8860 0.8209
13.8400 6.8960 0.8307
13.8600 6.9060 0.8341
13.8800 6.9160 0.8258
13.9000 6.9261 0.8305
13.9200 6.9361 0.8359
13.9400 6.9461 0.8281
13.9600 6.9560 0.8336
13.9800 6.9660 0.8441
14.0000 6.9761 0.8305
14.0200 6.9861 0.8361
14.0400 6.9961 0.8456
14.0600 7.0061 0.8332
14.0800 7.0160 0.8356
14.1000 7.0260 0.8485
14.1200 7.0360 0.8344
14.1400 7.0460 0.8377
14.1600 7.0561 0.8525
14.1800 7.0660 0.8345
14.2000 7.0759 0.8323
14.2200 7.0859 0.8568
14.2400 7.0960 0.8398
14.2600 7.1060 0.8389
14.2800 7.1160 0.8597
14.3000 7.1260 0.8379
14.3200 7.1360 0.8426
14.3400 7.1460 0.8592
14.3600 7.1560 0.8400
14.3800 7.1661 0.8463
14.4000 7.1761 0.8616
14.4200 7.1861 0.8435
14.4400 7.1960 0.8470
14.4600 7.2060 0.8670
14.4800 7.2160 0.8480
14.5000 7.2261 0.8535
14.5200 7.2361 0.8677
14.5400 7.2461 0.8464
14.5600 7.2560 0.8605
14.5800 7.2660 0.8689
14.6000 7.2760 0.8487
14.6200 7.2860 0.8556
14.6400 7.2961 0.8726
14.6600 7.3060 0.8520
14.6800 7.3160 0.8559
14.7000 7.3260 0.8714
14.7200 7.3360 0.8527
14.7400 7.3460 0.8551
14.7600 7.3560 0.8726
14.7800 7.3660 0.8610
14.8000 7.3760 0.8596
14.8200 7.3860 0.8767
14.8400 7.3960 0.8624
14.8600 7.4061 0.8609
14.8800 7.4161 0.8807
14.9000 7.4261 0.8584
14.9200 7.4360 0.8669
14.9400 7.4460 0.8830
14.9600 7.4560 0.8630
14.9800 7.4661 0.8738
15.0000 7.4761 0.8830
15.0200 7.4861 0.8668
15.0400 7.4960 0.8778
15.0600 7.5060 0.8840
15.0800 7.5160 0.8696
15.1000 7.5260 0.8763
15.1200 7.5361 0.8790
15.1400 7.5460 0.8693
15.1600 7.5560 0.8770
15.1800 7.5659 0.8863
15.2000 7.5760 0.8755
15.2200 7.5860 0.8731
15.2400 7.5961 0.8854
15.2600 7.6061 0.8766
15.2800 7.6160 0.8775
15.3000 7.6260 0.8950
15.3200 7.6360 0.8794
15.3400 7.6461 0.8830
15.3600 7.6561 0.8947
15.3800 7.6661 0.8745
15.4000 7.6760 0.8887
15.4200 7.6860 0.8960
15.4400 7.6960 0.8788
15.4600 7.7060 0.8909
15.4800 7.7161 0.8982
15.5000 7.7261 0.8801
15.5200 7.7360 0.8964
15.5400 7.7460 0.9004
15.5600 7.7560 0.8855
15.5800 7.7661 0.9022
15.6000 7.7761 0.8990
15.6200 7.7861 0.8921
15.6400 7.7960 0.9067
15.6600 7.8060 0.9023
15.6800 7.8160 0.8919
15.7000 7.8260 0.9018
15.7200 7.8360 0.8988
15.7400 7.8460 0.8924
15.7600 7.8560 0.9019
15.7800 7.8660 0.9003
15.8000 7.8760 0.8961
15.8200 7.8861 0.9060
15.8400 7.8961 0.9002
15.8600 7.9061 0.9051
15.8800 7.9161 0.9038
15.9000 7.9261 0.9045
15.9200 7.9361 0.9070
15.9400 7.9461 0.9051
15.9600 7.9562 0.9035
15.9800 7.9661 0.9084
16.0000 7.9761 0.9074
16.0200 7.9860 0.9087
16.0400 7.9960 0.9111
16.0600 8.0060 0.9147
16.0800 8.0161 0.9150
16.1000 8.0260 0.9123
16.1200 8.0360 0.9160
16.1400 8.0459 0.9192
16.1600 8.0559 0.9133
16.1800 8.0659 0.9163
16.2000 8.0760 0.9176
16.2200 8.0860 0.9115
16.2400 8.0960 0.9169
16.2600 8.1060 0.9220
16.2800 8.1160 0.9160
16.3000 8.1261 0.9216
16.3200 8.1361 0.9237
16.3400 8.1461 0.9172
16.3600 8.1561 0.9250
16.3800 8.1661 0.9262
16.4000 8.1761 0.9214
16.4200 8.1861 0.9252
16.4400 8.1961 0.9286
16.4600 8.2061 0.9204
16.4800 8.2160 0.9319
16.5000 8.2260 0.9322
16.5200 8.2360 0.9292
16.5400 8.2460 0.9287
16.5600 8.2561 0.9302
16.5800 8.2660 0.9347
16.6000 8.2760 0.9295
16.6200 8.2859 0.9368
16.6400 8.2960 0.9384
16.6600 8.3060 0.9280
16.6800 8.3160 0.9395
16.7000 8.3260 0.9339
16.7200 8.3360 0.9281
16.7400 8.3460 0.9363
16.7600 8.3560 0.9347
16.7800 8.3660 0.9336
16.8000 8.3760 0.9396
16.8200 8.3860 0.9361
16.8400 8.3960 0.9349
16.8600 8.4060 0.9478
16.8800 8.4161 0.9424
16.9000 8.4261 0.9390
16.9200 8.4361 0.9461
16.9400 8.4461 0.9415
16.9600 8.4561 0.9417
16.9800 8.4660 0.9493
17.0000 8.4760 0.9477
17.0200 8.4860 0.9430
17.0400 8.4960 0.9488
17.0600 8.5060 0.9510
17.0800 8.5159 0.9438
17.1000 8.5259 0.9560
17.1200 8.5359 0.9575
17.1400 8.5460 0.9523
17.1600 8.5560 0.9522
17.1800 8.5661 0.9562
17.2000 8.5760 0.9547
17.2200 8.5860 0.9566
17.2400 8.5960 0.9551
17.2600 8.6061 0.9498
17.2800 8.6161 0.9538
17.3000 8.6261 0.9611
17.3200 8.6361 0.9523
17.3400 8.6460 0.9620
17.3600 8.6560 0.9684
17.3800 8.6660 0.9621
17.4000 8.6761 0.9605
17.4200 8.6861 0.9650
17.4400 8.6960 0.9627
17.4600 8.7060 0.9672
17.4800 8.7160 0.9617
17.5000 8.7260 0.9658
17.5200 8.7360 0.9720
17.5400 8.7461 0.9617
17.5600 8.7560 0.9634
17.5800 8.7660 0.9781
17.6000 8.7760 0.9747
17.6200 8.7860 0.9710
17.6400 8.7960 0.9740
17.6600 8.8060 0.9755
17.6800 8.8160 0.9759
17.7000 8.8260 0.9747
17.7200 8.8360 0.9747
17.7400 8.8461 0.9788
17.7600 8.8561 0.9785
