Raw Data
Time Displacement Force
(s) (mm) (N)
0.0000 0.0000 -0.0092
0.0200 0.0001 -0.0059
0.0400 0.0014 0.0524
0.0600 0.0067 0.0475
0.0800 0.0154 -0.0177
0.1000 0.0245 -0.0091
0.1200 0.0338 0.0084
0.1400 0.0438 -0.0058
0.1600 0.0545 -0.0011
0.1800 0.0653 -0.0064
0.2000 0.0759 -0.0194
0.2200 0.0861 -0.0046
0.2400 0.0961 -0.0019
0.2600 0.1061 -0.0170
0.2800 0.1161 0.0045
0.3000 0.1262 -0.0008
0.3200 0.1362 -0.0177
0.3400 0.1462 0.0074
0.3600 0.1562 -0.0054
0.3800 0.1662 -0.0114
0.4000 0.1763 0.0021
0.4200 0.1863 -0.0037
0.4400 0.1962 -0.0114
0.4600 0.2062 0.0037
0.4800 0.2162 -0.0024
0.5000 0.2262 -0.0085
0.5200 0.2363 0.0052
0.5400 0.2463 -0.0030
0.5600 0.2562 -0.0089
0.5800 0.2662 0.0031
0.6000 0.2762 -0.0018
0.6200 0.2862 -0.0055
0.6400 0.2962 0.0003
0.6600 0.3062 0.0025
0.6800 0.3162 -0.0095
0.7000 0.3261 0.0031
0.7200 0.3361 0.0033
0.7400 0.3461 -0.0102
0.7600 0.3562 0.0035
0.7800 0.3662 -0.0023
0.8000 0.3762 -0.0154
0.8200 0.3862 0.0019
0.8400 0.3962 -0.0036
0.8600 0.4062 -0.0128
0.8800 0.4163 0.0049
0.9000 0.4263 -0.0015
0.9200 0.4363 -0.0143
0.9400 0.4462 0.0026
0.9600 0.4562 0.0045
0.9800 0.4663 -0.0135
1.0000 0.4763 0.0025
1.0200 0.4863 0.0020
1.0400 0.4962 -0.0142
1.0600 0.5062 0.0039
1.0800 0.5162 0.0004
1.1000 0.5262 -0.0092
1.1200 0.5362 0.0080
1.1400 0.5462 -0.0017
1.1600 0.5562 -0.0069
1.1800 0.5661 0.0044
1.2000 0.5761 0.0036
1.2200 0.5862 -0.0098
1.2400 0.5962 0.0003
1.2600 0.6062 -0.0020
1.2800 0.6162 -0.0087
1.3000 0.6261 -0.0018
1.3200 0.6361 -0.0030
1.3400 0.6462 -0.0075
1.3600 0.6562 -0.0027
1.3800 0.6662 -0.0019
1.4000 0.6762 -0.0090
1.4200 0.6862 -0.0021
1.4400 0.6962 0.0009
1.4600 0.7062 -0.0095
1.4800 0.7163 0.0012
1.5000 0.7263 -0.0001
1.5200 0.7363 -0.0151
1.5400 0.7463 0.0023
1.5600 0.7562 0.0074
1.5800 0.7662 -0.0103
1.6000 0.7762 0.0064
1.6200 0.7863 0.0016
1.6400 0.7962 -0.0157
1.6600 0.8062 0.0059
1.6800 0.8161 0.0058
1.7000 0.8261 -0.0117
1.7200 0.8362 0.0105
1.7400 0.8462 0.0003
1.7600 0.8562 -0.0151
1.7800 0.8662 0.0087
1.8000 0.8762 0.0035
1.8200 0.8863 -0.0109
1.8400 0.8963 0.0034
1.8600 0.9063 -0.0015
1.8800 0.9163 -0.0089
1.9000 0.9262 0.0079
1.9200 0.9362 -0.0021
1.9400 0.9462 0.0011
1.9600 0.9563 0.0047
1.9800 0.9663 -0.0011
2.0000 0.9762 0.0042
2.0200 0.9862 0.0057
2.0400 0.9962 0.0028
2.0600 1.0062 -0.0004
2.0800 1.0162 0.0017
2.1000 1.0263 0.0057
2.1200 1.0362 0.0008
2.1400 1.0462 0.0058
2.1600 1.0561 0.0073
2.1800 1.0661 0.0038
2.2000 1.0762 0.0083
2.2200 1.0862 0.0050
2.2400 1.0962 0.0011
2.2600 1.1062 0.0086
2.2800 1.1162 0.0056
2.3000 1.1262 0.0038
2.3200 1.1363 0.0119
2.3400 1.1463 0.0100
2.3600 1.1563 0.0046
2.3800 1.1663 0.0121
2.4000 1.1762 0.0129
2.4200 1.1863 0.0082
2.4400 1.1963 0.0048
2.4600 1.2063 0.0179
2.4800 1.2163 0.0094
2.5000 1.2262 0.0090
2.5200 1.2362 0.0224
2.5400 1.2462 0.0093
2.5600 1.2562 0.0116
2.5800 1.2662 0.0241
2.6000 1.2762 0.0136
2.6200 1.2861 0.0134
2.6400 1.2961 0.0282
2.6600 1.3062 0.0099
2.6800 1.3162 0.0106
2.7000 1.3263 0.0255
2.7200 1.3363 0.0093
2.7400 1.3462 0.0127
2.7600 1.3562 0.0325
2.7800 1.3662 0.0136
2.8000 1.3763 0.0160
2.8200 1.3863 0.0265
2.8400 1.3963 0.0129
2.8600 1.4062 0.0203
2.8800 1.4162 0.0372
2.9000 1.4262 0.0125
2.9200 1.4362 0.0226
2.9400 1.4463 0.0347
2.9600 1.4563 0.0161
2.9800 1.4663 0.0353
3.0000 1.4762 0.0390
3.0200 1.4862 0.0204
3.0400 1.4962 0.0403
3.0600 1.5063 0.0405
3.0800 1.5163 0.0233
3.1000 1.5262 0.0457
3.1200 1.5362 0.0430
3.1400 1.5462 0.0272
3.1600 1.5562 0.0484
3.1800 1.5663 0.0390
3.2000 1.5762 0.0352
3.2200 1.5862 0.0532
3.2400 1.5962 0.0462
3.2600 1.6062 0.0396
3.2800 1.6162 0.0517
3.3000 1.6262 0.0463
3.3200 1.6362 0.0503
3.3400 1.6462 0.0552
3.3600 1.6562 0.0507
3.3800 1.6662 0.0525
3.4000 1.6763 0.0550
3.4200 1.6863 0.0518
3.4400 1.6963 0.0543
3.4600 1.7062 0.0548
3.4800 1.7162 0.0571
3.5000 1.7262 0.0585
3.5200 1.7363 0.0570
3.5400 1.7463 0.0613
3.5600 1.7563 0.0639
3.5800 1.7662 0.0622
3.6000 1.7762 0.0665
3.6200 1.7862 0.0679
3.6400 1.7962 0.0611
3.6600 1.8062 0.0693
3.6800 1.8162 0.0683
3.7000 1.8262 0.0681
3.7200 1.8362 0.0766
3.7400 1.8462 0.0712
3.7600 1.8562 0.0678
3.7800 1.8663 0.0843
3.8000 1.8763 0.0761
3.8200 1.8862 0.0732
3.8400 1.8962 0.0875
3.8600 1.9062 0.0835
3.8800 1.9163 0.0753
3.9000 1.9263 0.0899
3.9200 1.9363 0.0819
3.9400 1.9462 0.0781
3.9600 1.9562 0.0936
3.9800 1.9662 0.0838
4.0000 1.9762 0.0812
4.0200 1.9863 0.0968
4.0400 1.9963 0.0810
4.0600 2.0062 0.0900
4.0800 2.0161 0.1046
4.1000 2.0262 0.0860
4.1200 2.0362 0.0907
4.1400 2.0463 0.1027
4.1600 2.0563 0.0868
4.1800 2.0662 0.0967
4.2000 2.0762 0.1028
4.2200 2.0862 0.0931
4.2400 2.0962 0.1024
4.2600 2.1063 0.1034
4.2800 2.1163 0.0995
4.3000 2.1263 0.1015
4.3200 2.1362 0.1023
4.3400 2.1463 0.1018
4.3600 2.1563 0.1035
4.3800 2.1663 0.1000
4.4000 2.1763 0.0997
4.4200 2.1863 0.1094
4.4400 2.1962 0.1059
4.4600 2.2062 0.1063
4.4800 2.2162 0.1135
4.5000 2.2262 0.1024
4.5200 2.2362 0.1110
4.5400 2.2462 0.1178
4.5600 2.2561 0.1080
4.5800 2.2661 0.1164
4.6000 2.2762 0.1222
4.6200 2.2862 0.1106
4.6400 2.2962 0.1193
4.6600 2.3062 0.1228
4.6800 2.3162 0.1162
4.7000 2.3262 0.1274
4.7200 2.3362 0.1200
4.7400 2.3463 0.1116
4.7600 2.3563 0.1257
4.7800 2.3663 0.1237
4.8000 2.3762 0.1210
4.8200 2.3862 0.1304
4.8400 2.3962 0.1255
4.8600 2.4063 0.1226
4.8800 2.4163 0.1352
4.9000 2.4262 0.1276
4.9200 2.4362 0.1273
4.9400 2.4462 0.1389
4.9600 2.4562 0.1272
4.9800 2.4662 0.1257
5.0000 2.4763 0.1392
5.0200 2.4862 0.1321
5.0400 2.4962 0.1322
5.0600 2.5062 0.1409
5.0800 2.5162 0.1396
5.1000 2.5262 0.1328
5.1200 2.5362 0.1472
5.1400 2.5462 0.1406
5.1600 2.5562 0.1365
5.1800 2.5662 0.1484
5.2000 2.5763 0.1395
5.2200 2.5863 0.1416
5.2400 2.5963 0.1528
5.2600 2.6063 0.1479
5.2800 2.6162 0.1425
5.3000 2.6262 0.1515
5.3200 2.6363 0.1525
5.3400 2.6463 0.1447
5.3600 2.6563 0.1565
5.3800 2.6662 0.1502
5.4000 2.6762 0.1481
5.4200 2.6862 0.1525
5.4400 2.6962 0.1522
5.4600 2.7062 0.1533
5.4800 2.7162 0.1515
5.5000 2.7262 0.1531
5.5200 2.7362 0.1498
5.5400 2.7462 0.1596
5.5600 2.7562 0.1551
5.5800 2.7662 0.1534
5.6000 2.7763 0.1587
5.6200 2.7862 0.1604
5.6400 2.7962 0.1558
5.6600 2.8062 0.1587
5.6800 2.8162 0.1637
5.7000 2.8262 0.1547
5.7200 2.8363 0.1596
5.7400 2.8463 0.1712
5.7600 2.8562 0.1579
5.7800 2.8662 0.1705
5.8000 2.8762 0.1695
5.8200 2.8862 0.1614
5.8400 2.8963 0.1714
5.8600 2.9062 0.1711
5.8800 2.9162 0.1638
5.9000 2.9262 0.1729
5.9200 2.9362 0.1749
5.9400 2.9463 0.1670
5.9600 2.9563 0.1751
5.9800 2.9663 0.1769
6.0000 2.9762 0.1689
6.0200 2.9862 0.1774
6.0400 2.9962 0.1727
6.0600 3.0062 0.1688
6.0800 3.0162 0.1741
6.1000 3.0262 0.1743
6.1200 3.0362 0.1701
6.1400 3.0462 0.1791
6.1600 3.0562 0.1832
6.1800 3.0663 0.1714
6.2000 3.0763 0.1798
6.2200 3.0863 0.1853
6.2400 3.0962 0.1672
6.2600 3.1062 0.1848
6.2800 3.1163 0.1877
6.3000 3.1263 0.1691
6.3200 3.1363 0.1870
6.3400 3.1463 0.1895
6.3600 3.1562 0.1723
6.3800 3.1662 0.1953
6.4000 3.1762 0.1914
6.4200 3.1862 0.1753
6.4400 3.1962 0.2018
6.4600 3.2062 0.1915
6.4800 3.2162 0.1760
6.5000 3.2261 0.2046
6.5200 3.2361 0.1940
6.5400 3.2461 0.1767
6.5600 3.2562 0.2063
6.5800 3.2662 0.1916
6.6000 3.2762 0.1811
6.6200 3.2862 0.2117
6.6400 3.2962 0.1923
6.6600 3.3063 0.1795
6.6800 3.3163 0.2095
6.7000 3.3263 0.1909
6.7200 3.3363 0.1853
6.7400 3.3463 0.2132
6.7600 3.3563 0.1922
6.7800 3.3663 0.1891
6.8000 3.3763 0.2130
6.8200 3.3863 0.1906
6.8400 3.3962 0.1967
6.8600 3.4062 0.2151
6.8800 3.4162 0.1914
6.9000 3.4262 0.1984
6.9200 3.4362 0.2154
6.9400 3.4462 0.1956
6.9600 3.4562 0.2039
6.9800 3.4662 0.2189
7.0000 3.4762 0.1991
7.0200 3.4862 0.2016
7.0400 3.4962 0.2145
7.0600 3.5062 0.2032
7.0800 3.5162 0.2043
7.1000 3.5262 0.2135
7.1200 3.5362 0.2061
7.1400 3.5463 0.2063
7.1600 3.5563 0.2137
7.1800 3.5663 0.2059
7.2000 3.5762 0.2102
7.2200 3.5862 0.2126
7.2400 3.5962 0.2072
7.2600 3.6063 0.2137
7.2800 3.6163 0.2082
7.3000 3.6263 0.2131
7.3200 3.6362 0.2159
7.3400 3.6462 0.2147
7.3600 3.6562 0.2173
7.3800 3.6662 0.2146
7.4000 3.6762 0.2142
7.4200 3.6862 0.2186
7.4400 3.6961 0.2167
7.4600 3.7061 0.2214
7.4800 3.7161 0.2158
7.5000 3.7262 0.2186
7.5200 3.7362 0.2207
7.5400 3.7463 0.2195
7.5600 3.7562 0.2181
7.5800 3.7662 0.2215
7.6000 3.7762 0.2203
7.6200 3.7863 0.2218
7.6400 3.7963 0.2257
7.6600 3.8063 0.2197
7.6800 3.8162 0.2278
7.7000 3.8262 0.2306
7.7200 3.8362 0.2218
7.7400 3.8463 0.2285
7.7600 3.8563 0.2291
7.7800 3.8663 0.2270
7.8000 3.8762 0.2285
7.8200 3.8862 0.2315
7.8400 3.8962 0.2264
7.8600 3.9062 0.2319
7.8800 3.9162 0.2250
7.9000 3.9262 0.2261
7.9200 3.9362 0.2305
7.9400 3.9462 0.2254
7.9600 3.9562 0.2291
7.9800 3.9662 0.2309
8.0000 3.9762 0.2293
8.0200 3.9862 0.2364
8.0400 3.9962 0.2282
8.0600 4.0062 0.2295
8.0800 4.0162 0.2391
8.1000 4.0262 0.2313
8.1200 4.0363 0.2319
8.1400 4.0463 0.2371
8.1600 4.0562 0.2360
8.1800 4.0662 0.2376
8.2000 4.0762 0.2433
8.2200 4.0863 0.2341
8.2400 4.0963 0.2405
8.2600 4.1063 0.2420
8.2800 4.1162 0.2341
8.3000 4.1262 0.2427
8.3200 4.1362 0.2452
8.3400 4.1462 0.2377
8.3600 4.1563 0.2404
8.3800 4.1663 0.2387
8.4000 4.1762 0.2433
8.4200 4.1862 0.2422
8.4400 4.1962 0.2430
8.4600 4.2062 0.2428
8.4800 4.2162 0.2456
8.5000 4.2262 0.2444
8.5200 4.2362 0.2467
8.5400 4.2462 0.2499
8.5600 4.2562 0.2436
8.5800 4.2662 0.2448
8.6000 4.2763 0.2472
8.6200 4.2863 0.2499
8.6400 4.2963 0.2512
8.6600 4.3062 0.2510
8.6800 4.3162 0.2542
8.7000 4.3262 0.2502
8.7200 4.3363 0.2525
8.7400 4.3463 0.2531
8.7600 4.3562 0.2540
8.7800 4.3662 0.2507
8.8000 4.3762 0.2499
8.8200 4.3862 0.2564
8.8400 4.3963 0.2524
8.8600 4.4063 0.2528
8.8800 4.4162 0.2493
8.9000 4.4261 0.2533
8.9200 4.4361 0.2534
8.9400 4.4462 0.2554
8.9600 4.4562 0.2550
8.9800 4.4662 0.2519
9.0000 4.4761 0.2614
9.0200 4.4861 0.2526
9.0400 4.4961 0.2575
9.0600 4.5062 0.2643
9.0800 4.5163 0.2527
9.1000 4.5263 0.2560
9.1200 4.5363 0.2670
9.1400 4.5463 0.2588
9.1600 4.5562 0.2562
9.1800 4.5663 0.2713
9.2000 4.5763 0.2568
9.2200 4.5863 0.2626
9.2400 4.5962 0.2693
9.2600 4.6062 0.2583
9.2800 4.6162 0.2668
9.3000 4.6262 0.2668
9.3200 4.6362 0.2575
9.3400 4.6462 0.2679
9.3600 4.6562 0.2690
9.3800 4.6662 0.2599
9.4000 4.6762 0.2689
9.4200 4.6862 0.2689
9.4400 4.6962 0.2616
9.4600 4.7062 0.2744
9.4800 4.7162 0.2704
9.5000 4.7262 0.2634
9.5200 4.7362 0.2751
9.5400 4.7463 0.2671
9.5600 4.7563 0.2678
9.5800 4.7663 0.2789
9.6000 4.7763 0.2649
9.6200 4.7862 0.2712
9.6400 4.7962 0.2777
9.6600 4.8062 0.2720
9.6800 4.8163 0.2727
9.7000 4.8263 0.2754
9.7200 4.8362 0.2708
9.7400 4.8461 0.2743
9.7600 4.8561 0.2761
9.7800 4.8662 0.2652
9.8000 4.8762 0.2749
9.8200 4.8863 0.2778
9.8400 4.8962 0.2712
9.8600 4.9062 0.2748
9.8800 4.9162 0.2779
9.9000 4.9262 0.2749
9.9200 4.9362 0.2790
9.9400 4.9463 0.2802
9.9600 4.9562 0.2800
9.9800 4.9662 0.2764
10.0000 4.9762 0.2836
10.0200 4.9862 0.2817
10.0400 4.9963 0.2796
10.0600 5.0063 0.2812
10.0800 5.0163 0.2837
10.1000 5.0262 0.2836
10.1200 5.0362 0.2856
10.1400 5.0463 0.2847
10.1600 5.0563 0.2806
10.1800 5.0663 0.2862
10.2000 5.0763 0.2842
10.2200 5.0862 0.2824
10.2400 5.0962 0.2852
10.2600 5.1062 0.2857
10.2800 5.1162 0.2875
10.3000 5.1262 0.2834
10.3200 5.1362 0.2872
10.3400 5.1461 0.2907
10.3600 5.1561 0.2889
10.3800 5.1662 0.2866
10.4000 5.1762 0.2941
10.4200 5.1862 0.2881
10.4400 5.1962 0.2846
10.4600 5.2062 0.2951
10.4800 5.2162 0.2892
10.5000 5.2262 0.2909
10.5200 5.2363 0.2922
10.5400 5.2463 0.2865
10.5600 5.2563 0.2916
10.5800 5.2663 0.2956
10.6000 5.2762 0.2898
10.6200 5.2862 0.2943
10.6400 5.2963 0.3001
10.6600 5.3063 0.2874
10.6800 5.3162 0.2975
10.7000 5.3262 0.2967
10.7200 5.3362 0.2880
10.7400 5.3462 0.3031
10.7600 5.3563 0.2987
10.7800 5.3663 0.2920
10.8000 5.3762 0.3027
10.8200 5.3862 0.2989
10.8400 5.3961 0.2931
10.8600 5.4061 0.3098
10.8800 5.4162 0.3007
10.9000 5.4262 0.2927
10.9200 5.4362 0.3072
10.9400 5.4462 0.2972
10.9600 5.4562 0.2956
10.9800 5.4662 0.3134
11.0000 5.4762 0.2910
11.0200 5.4863 0.2966
11.0400 5.4963 0.3108
11.0600 5.5062 0.2887
11.0800 5.5162 0.2947
11.1000 5.5262 0.3145
11.1200 5.5363 0.2910
11.1400 5.5463 0.2970
11.1600 5.5563 0.3130
11.1800 5.5662 0.2969
11.2000 5.5762 0.2990
11.2200 5.5862 0.3097
11.2400 5.5962 0.2977
11.2600 5.6062 0.3023
11.2800 5.6162 0.3101
11.3000 5.6262 0.3032
11.3200 5.6361 0.3067
11.3400 5.6462 0.3114
11.3600 5.6562 0.3036
11.3800 5.6662 0.3100
11.4000 5.6762 0.3109
11.4200 5.6862 0.3025
11.4400 5.6962 0.3126
11.4600 5.7062 0.3107
11.4800 5.7163 0.3099
11.5000 5.7263 0.3084
11.5200 5.7363 0.3113
11.5400 5.7462 0.3145
11.5600 5.7562 0.3082
11.5800 5.7662 0.3131
11.6000 5.7763 0.3136
11.6200 5.7863 0.3070
11.6400 5.7963 0.3132
11.6600 5.8062 0.3128
11.6800 5.8162 0.3117
11.7000 5.8262 0.3119
11.7200 5.8362 0.3125
11.7400 5.8463 0.3115
11.7600 5.8562 0.3139
11.7800 5.8662 0.3138
11.8000 5.8761 0.3132
11.8200 5.8861 0.3161
11.8400 5.8962 0.3156
11.8600 5.9062 0.3108
11.8800 5.9162 0.3197
11.9000 5.9262 0.3139
11.9200 5.9362 0.3157
11.9400 5.9462 0.3217
11.9600 5.9563 0.3194
11.9800 5.9663 0.3128
12.0000 5.9763 0.3219
12.0200 5.9863 0.3199
12.0400 5.9962 0.3189
12.0600 6.0063 0.3242
12.0800 6.0163 0.3191
12.1000 6.0263 0.3203
12.1200 6.0363 0.3274
12.1400 6.0462 0.3246
12.1600 6.0562 0.3209
12.1800 6.0662 0.3291
12.2000 6.0762 0.3248
12.2200 6.0862 0.3209
12.2400 6.0962 0.3246
12.2600 6.1061 0.3281
12.2800 6.1161 0.3260
12.3000 6.1261 0.3281
12.3200 6.1362 0.3250
12.3400 6.1462 0.3264
12.3600 6.1563 0.3296
12.3800 6.1662 0.3228
12.4000 6.1762 0.3282
12.4200 6.1862 0.3348
12.4400 6.1963 0.3233
12.4600 6.2063 0.3277
12.4800 6.2163 0.3322
12.5000 6.2263 0.3256
12.5200 6.2362 0.3311
12.5400 6.2462 0.3381
12.5600 6.2562 0.3268
12.5800 6.2663 0.3336
12.6000 6.2763 0.3360
12.6200 6.2862 0.3311
12.6400 6.2962 0.3345
12.6600 6.3062 0.3409
12.6800 6.3162 0.3315
12.7000 6.3263 0.3342
12.7200 6.3363 0.3384
12.7400 6.3462 0.3343
12.7600 6.3562 0.3365
12.7800 6.3662 0.3442
12.8000 6.3762 0.3363
12.8200 6.3862 0.3349
12.8400 6.3962 0.3437
12.8600 6.4062 0.3348
12.8800 6.4162 0.3351
12.9000 6.4262 0.3432
12.9200 6.4362 0.3304
12.9400 6.4463 0.3332
12.9600 6.4563 0.3437
12.9800 6.4662 0.3341
13.0000 6.4762 0.3282
13.0200 6.4862 0.3396
13.0400 6.4962 0.3354
13.0600 6.5063 0.3329
13.0800 6.5163 0.3417
13.1000 6.5262 0.3385
13.1200 6.5362 0.3374
13.1400 6.5462 0.3433
13.1600 6.5562 0.3387
13.1800 6.5663 0.3358
13.2000 6.5763 0.3435
13.2200 6.5862 0.3427
13.2400 6.5961 0.3398
13.2600 6.6061 0.3444
13.2800 6.6162 0.3422
13.3000 6.6262 0.3389
13.3200 6.6362 0.3456
13.3400 6.6462 0.3435
13.3600 6.6562 0.3438
13.3800 6.6662 0.3487
13.4000 6.6762 0.3493
13.4200 6.6863 0.3438
13.4400 6.6963 0.3465
13.4600 6.7063 0.3498
13.4800 6.7162 0.3471
13.5000 6.7262 0.3425
13.5200 6.7363 0.3483
13.5400 6.7463 0.3468
13.5600 6.7563 0.3378
13.5800 6.7662 0.3458
13.6000 6.7762 0.3468
13.6200 6.7862 0.3448
13.6400 6.7962 0.3540
13.6600 6.8062 0.3474
13.6800 6.8163 0.3465
13.7000 6.8262 0.3552
13.7200 6.8361 0.3457
13.7400 6.8461 0.3435
13.7600 6.8562 0.3557
13.7800 6.8663 0.3455
13.8000 6.8763 0.3461
13.8200 6.8862 0.3584
13.8400 6.8962 0.3461
13.8600 6.9062 0.3507
13.8800 6.9162 0.3637
13.9000 6.9262 0.3507
13.9200 6.9363 0.3490
13.9400 6.9463 0.3606
13.9600 6.9562 0.3505
13.9800 6.9662 0.3538
14.0000 6.9763 0.3626
14.0200 6.9863 0.3485
14.0400 6.9963 0.3594
14.0600 7.0063 0.3622
14.0800 7.0162 0.3511
14.1000 7.0262 0.3611
14.1200 7.0362 0.3580
14.1400 7.0463 0.3491
14.1600 7.0563 0.3524
14.1800 7.0662 0.3552
14.2000 7.0761 0.3534
14.2200 7.0861 0.3530
14.2400 7.0961 0.3517
14.2600 7.1062 0.3553
14.2800 7.1162 0.3536
14.3000 7.1262 0.3503
14.3200 7.1362 0.3580
14.3400 7.1462 0.3606
14.3600 7.1562 0.3515
14.3800 7.1663 0.3562
14.4000 7.1763 0.3545
14.4200 7.1863 0.3551
14.4400 7.1962 0.3631
14.4600 7.2062 0.3598
14.4800 7.2162 0.3556
14.5000 7.2263 0.3614
14.5200 7.2363 0.3608
14.5400 7.2463 0.3577
14.5600 7.2562 0.3645
14.5800 7.2662 0.3634
14.6000 7.2762 0.3574
14.6200 7.2862 0.3680
14.6400 7.2963 0.3629
14.6600 7.3062 0.3582
14.6800 7.3162 0.3704
14.7000 7.3262 0.3629
14.7200 7.3362 0.3620
14.7400 7.3462 0.3730
14.7600 7.3562 0.3556
14.7800 7.3662 0.3558
14.8000 7.3762 0.3710
14.8200 7.3862 0.3584
14.8400 7.3962 0.3631
14.8600 7.4063 0.3703
14.8800 7.4163 0.3630
14.9000 7.4263 0.3613
14.9200 7.4362 0.3710
14.9400 7.4462 0.3654
14.9600 7.4562 0.3630
14.9800 7.4663 0.3736
15.0000 7.4763 0.3644
15.0200 7.4862 0.3616
15.0400 7.4962 0.3747
15.0600 7.5062 0.3654
15.0800 7.5162 0.3718
15.1000 7.5262 0.3780
15.1200 7.5362 0.3631
15.1400 7.5462 0.3668
15.1600 7.5562 0.3781
15.1800 7.5661 0.3687
15.2000 7.5762 0.3716
15.2200 7.5862 0.3772
15.2400 7.5963 0.3679
15.2600 7.6062 0.3695
15.2800 7.6162 0.3801
15.3000 7.6262 0.3678
15.3200 7.6362 0.3713
15.3400 7.6463 0.3811
15.3600 7.6563 0.3713
15.3800 7.6663 0.3682
15.4000 7.6762 0.3743
15.4200 7.6862 0.3670
15.4400 7.6962 0.3770
15.4600 7.7062 0.3833
15.4800 7.7163 0.3667
15.5000 7.7263 0.3773
15.5200 7.7362 0.3833
15.5400 7.7462 0.3689
15.5600 7.7562 0.3807
15.5800 7.7663 0.3819
15.6000 7.7763 0.3640
15.6200 7.7863 0.3787
15.6400 7.7962 0.3829
15.6600 7.8062 0.3662
15.6800 7.8162 0.3878
15.7000 7.8262 0.3861
15.7200 7.8362 0.3631
15.7400 7.8462 0.3888
15.7600 7.8562 0.3881
15.7800 7.8662 0.3673
15.8000 7.8762 0.3876
15.8200 7.8863 0.3848
15.8400 7.8963 0.3607
15.8600 7.9063 0.3851
15.8800 7.9163 0.3876
15.9000 7.9262 0.3702
15.9200 7.9363 0.3890
15.9400 7.9463 0.3888
15.9600 7.9564 0.3693
15.9800 7.9663 0.3937
16.0000 7.9762 0.3913
16.0200 7.9862 0.3686
16.0400 7.9962 0.3904
16.0600 8.0062 0.3882
16.0800 8.0162 0.3703
16.1000 8.0262 0.3970
16.1200 8.0362 0.3930
16.1400 8.0461 0.3750
16.1600 8.0561 0.3989
16.1800 8.0661 0.3888
16.2000 8.0762 0.3742
16.2200 8.0862 0.3989
16.2400 8.0962 0.3832
16.2600 8.1062 0.3828
16.2800 8.1162 0.3922
16.3000 8.1263 0.3836
16.3200 8.1363 0.3876
16.3400 8.1463 0.3930
16.3600 8.1563 0.3835
16.3800 8.1663 0.3883
16.4000 8.1763 0.3914
16.4200 8.1863 0.3857
16.4400 8.1963 0.3969
16.4600 8.2063 0.3908
16.4800 8.2162 0.3899
16.5000 8.2262 0.3956
16.5200 8.2362 0.3864
16.5400 8.2462 0.3990
16.5600 8.2563 0.3937
16.5800 8.2662 0.3851
16.6000 8.2762 0.4005
16.6200 8.2861 0.3934
16.6400 8.2961 0.3809
16.6600 8.3062 0.4015
16.6800 8.3162 0.3957
16.7000 8.3262 0.3778
16.7200 8.3362 0.4066
16.7400 8.3462 0.3940
16.7600 8.3562 0.3819
16.7800 8.3662 0.4059
16.8000 8.3763 0.3947
16.8200 8.3863 0.3855
16.8400 8.3962 0.4091
16.8600 8.4062 0.3940
16.8800 8.4162 0.3915
16.9000 8.4263 0.4095
16.9200 8.4363 0.3879
16.9400 8.4463 0.3893
16.9600 8.4562 0.4138
16.9800 8.4662 0.3923
17.0000 8.4762 0.3983
17.0200 8.4862 0.4080
17.0400 8.4962 0.3905
17.0600 8.5062 0.3976
17.0800 8.5161 0.4053
17.1000 8.5261 0.3938
17.1200 8.5361 0.4017
17.1400 8.5462 0.4020
17.1600 8.5562 0.3926
17.1800 8.5662 0.4068
17.2000 8.5762 0.4073
17.2200 8.5862 0.3967
17.2400 8.5962 0.4017
17.2600 8.6063 0.4011
17.2800 8.6163 0.4016
17.3000 8.6263 0.3977
17.3200 8.6363 0.4103
17.3400 8.6462 0.4066
17.3600 8.6562 0.3921
17.3800 8.6662 0.4100
17.4000 8.6763 0.4081
17.4200 8.6863 0.3951
17.4400 8.6962 0.4096
17.4600 8.7062 0.4125
17.4800 8.7162 0.3961
17.5000 8.7262 0.4076
17.5200 8.7362 0.4073
17.5400 8.7463 0.3937
17.5600 8.7562 0.4147
17.5800 8.7662 0.4072
17.6000 8.7762 0.3956
17.6200 8.7862 0.4216
17.6400 8.7962 0.4051
17.6600 8.8062 0.4025
17.6800 8.8162 0.4141
17.7000 8.8262 0.4052
